# Matter power spectrum P(k) at redshift z=0
# for k=1.04686e-05 to 1.73245 h/Mpc,
# number of wavenumbers equal to 568
#    1:k (h/Mpc)              2:P (Mpc/h)^3        
       1.046863619766e-05       4.773523991389e+01 
       2.338538188699e-05       1.037579344443e+02 
       3.634777635268e-05       1.588671781625e+02 
       4.939089050207e-05       2.136305355781e+02 
       6.255037827131e-05       2.683753529456e+02 
       7.586279630403e-05       3.233496722397e+02 
       8.936593390282e-05       3.787674025446e+02 
       1.030991576649e-04       4.348268600688e+02 
       1.171037752460e-04       4.917203463398e+02 
       1.314234227321e-04       5.496399881813e+02 
       1.461044801004e-04       6.087818222876e+02 
       1.611965191925e-04       6.693490174061e+02 
       1.767527884316e-04       7.315546461208e+02 
       1.928307381337e-04       7.956242360144e+02 
       2.094925895787e-04       8.617982364697e+02 
       2.268059498876e-04       9.303344556680e+02 
       2.448444730264e-04       1.001510532441e+03 
       2.636885646912e-04       1.075626411171e+03 
       2.834261251471e-04       1.153006840654e+03 
       3.041533189494e-04       1.234003826207e+03 
       3.259753534816e-04       1.318998968172e+03 
       3.490072389861e-04       1.408405557937e+03 
       3.733744908525e-04       1.502670286090e+03 
       3.992137201183e-04       1.602274313582e+03 
       4.266730404696e-04       1.707733445624e+03 
       4.559122000909e-04       1.819597019728e+03 
       4.871023259617e-04       1.938445131300e+03 
       5.204251493380e-04       2.064883678229e+03 
       5.560715685342e-04       2.199536746538e+03 
       5.942394048775e-04       2.343035872634e+03 
       6.351302275171e-04       2.496005837115e+03 
       6.789451707603e-04       2.659046876244e+03 
       7.258797501526e-04       2.832713528989e+03 
       7.761178018833e-04       3.017490774863e+03 
       8.298248165500e-04       3.213768885495e+03 
       8.871410931258e-04       3.421818532586e+03 
       9.481752705847e-04       3.641768628392e+03 
       1.012998865046e-03       3.873589167912e+03 
       1.081642415965e-03       4.117081325203e+03 
       1.154093710462e-03       4.371876381331e+03 
       1.230298323601e-03       4.637444093145e+03 
       1.310162427124e-03       4.913109885348e+03 
       1.393557541021e-03       5.198104837252e+03 
       1.480326690837e-03       5.491559672660e+03 
       1.570291327706e-03       5.792502071620e+03 
       1.663258375138e-03       6.099956947763e+03 
       1.759026865426e-03       6.412945549102e+03 
       1.857393781122e-03       6.730508113539e+03 
       1.958158883190e-03       7.051721938859e+03 
       2.061128455872e-03       7.375714472601e+03 
       2.166118011308e-03       7.701672680981e+03 
       2.272954069770e-03       8.028847578392e+03 
       2.381475167941e-03       8.356556587033e+03 
       2.491532256652e-03       8.684182429557e+03 
       2.602988640076e-03       9.011171236538e+03 
       2.715719588985e-03       9.337029028088e+03 
       2.829611737211e-03       9.661317372320e+03 
       2.944562347069e-03       9.983649326387e+03 
       3.060478508339e-03       1.030368480995e+04 
       3.177276317569e-03       1.062112556276e+04 
       3.294880070096e-03       1.093571189033e+04 
       3.413221486086e-03       1.124721717802e+04 
       3.532238983539e-03       1.155544703069e+04 
       3.651877005231e-03       1.186023167913e+04 
       3.772085402269e-03       1.216142770715e+04 
       3.892818874088e-03       1.245891161120e+04 
       4.014036462868e-03       1.275258143466e+04 
       4.135701099182e-03       1.304235006039e+04 
       4.257779195105e-03       1.332814420085e+04 
       4.380240280747e-03       1.360990791381e+04 
       4.503056680155e-03       1.388759339935e+04 
       4.626203222658e-03       1.416116671287e+04 
       4.749656985964e-03       1.443058930204e+04 
       4.873397067583e-03       1.469585806531e+04 
       4.997404381458e-03       1.495691948648e+04 
       5.121661476966e-03       1.521377765113e+04 
       5.246152377762e-03       1.546652510143e+04 
       5.370862438184e-03       1.571510875358e+04 
       5.495778215220e-03       1.595952422284e+04 
       5.620887354236e-03       1.619975292052e+04 
       5.746178486881e-03       1.643590194502e+04 
       5.871641139798e-03       1.666790819829e+04 
       5.997265652869e-03       1.689587155517e+04 
       6.123043105952e-03       1.711975623953e+04 
       6.248965253117e-03       1.733959829834e+04 
       6.375024463567e-03       1.755530410766e+04 
       6.501213668476e-03       1.776711819733e+04 
       6.627526313115e-03       1.797505106929e+04 
       6.753956313671e-03       1.817901567459e+04 
       6.880498018252e-03       1.837918242938e+04 
       7.007146171635e-03       1.857539913122e+04 
       7.133895883358e-03       1.876782242805e+04 
       7.260742598796e-03       1.895651815451e+04 
       7.387682072920e-03       1.914139971001e+04 
       7.514710346453e-03       1.932265985637e+04 
       7.641823724191e-03       1.950040474336e+04 
       7.769018755252e-03       1.967401481417e+04 
       7.896292215086e-03       1.984456039129e+04 
       8.023641089040e-03       2.001126890543e+04 
       8.151062557359e-03       2.017445372936e+04 
       8.278553981457e-03       2.033414347350e+04 
       8.406112891356e-03       2.049037423458e+04 
       8.533736974173e-03       2.064320393137e+04 
       8.661424063556e-03       2.079263016794e+04 
       8.789172129987e-03       2.093877064113e+04 
       8.916979271869e-03       2.108154783184e+04 
       9.044843707330e-03       2.122106004689e+04 
       9.172763766673e-03       2.135730441271e+04 
       9.300737885423e-03       2.149037362424e+04 
       9.428764597909e-03       2.162005610619e+04 
       9.556842531348e-03       2.174705278932e+04 
       9.684970400376e-03       2.187074119719e+04 
       9.813147001995e-03       2.199134656741e+04 
       9.941371210898e-03       2.210897733255e+04 
       1.006964197514e-02       2.222353337516e+04 
       1.019795831214e-02       2.233517113733e+04 
       1.032631930496e-02       2.244390429844e+04 
       1.045472409885e-02       2.254968261161e+04 
       1.058317189809e-02       2.265267302575e+04 
       1.071166196298e-02       2.275279902681e+04 
       1.084019360714e-02       2.285012734064e+04 
       1.096876619489e-02       2.294469098363e+04 
       1.109737913893e-02       2.303648649656e+04 
       1.122603189811e-02       2.312562130936e+04 
       1.135472397537e-02       2.321211337600e+04 
       1.148345491582e-02       2.329595211959e+04 
       1.161222430502e-02       2.337715929121e+04 
       1.174103176724e-02       2.345578138033e+04 
       1.186987696402e-02       2.353188902416e+04 
       1.199875959266e-02       2.360545699917e+04 
       1.212767938493e-02       2.367651255217e+04 
       1.225663610584e-02       2.374515851559e+04 
       1.238562955246e-02       2.381135622616e+04 
       1.251465955290e-02       2.387514058626e+04 
       1.264372596527e-02       2.393656656184e+04 
       1.277282867679e-02       2.399563412066e+04 
       1.290196760293e-02       2.405233951512e+04 
       1.303114268661e-02       2.410684747355e+04 
       1.316035389749e-02       2.415902458121e+04 
       1.328960123129e-02       2.420905002154e+04 
       1.341888470914e-02       2.425681718764e+04 
       1.354820437706e-02       2.430235785935e+04 
       1.367756030536e-02       2.434578737055e+04 
       1.380695258824e-02       2.438708009903e+04 
       1.393638134327e-02       2.442630010350e+04 
       1.406584671104e-02       2.446346616928e+04 
       1.419534885477e-02       2.449852743025e+04 
       1.432488796001e-02       2.453154274170e+04 
       1.445446423430e-02       2.456264580522e+04 
       1.458407790693e-02       2.459172214134e+04 
       1.471372922874e-02       2.461885479914e+04 
       1.484341847185e-02       2.464404842552e+04 
       1.497314592952e-02       2.466735144996e+04 
       1.510291191603e-02       2.468840753042e+04 
       1.523271676651e-02       2.470834871308e+04 
       1.536256083686e-02       2.472605096867e+04 
       1.549244450367e-02       2.474197692163e+04 
       1.562236816421e-02       2.475615423131e+04 
       1.575233223632e-02       2.476859450663e+04 
       1.588233715850e-02       2.477926119729e+04 
       1.601238338985e-02       2.478815434432e+04 
       1.614247141014e-02       2.479541526809e+04 
       1.627260171985e-02       2.480069145625e+04 
       1.640277484026e-02       2.480466286652e+04 
       1.653299131353e-02       2.480730574726e+04 
       1.666325170281e-02       2.480803870329e+04 
       1.679355659238e-02       2.480718134092e+04 
       1.692390658779e-02       2.480481456458e+04 
       1.705430231603e-02       2.480087511726e+04 
       1.718474442571e-02       2.479542374173e+04 
       1.731523358727e-02       2.478809542652e+04 
       1.744577049316e-02       2.478002955959e+04 
       1.757635585812e-02       2.477016335804e+04 
       1.770699041942e-02       2.475853375718e+04 
       1.783767493709e-02       2.474617475511e+04 
       1.796841019426e-02       2.473212652000e+04 
       1.809919699741e-02       2.471629904982e+04 
       1.823003617672e-02       2.469984931639e+04 
       1.836092858640e-02       2.468169204166e+04 
       1.849187510501e-02       2.466227204354e+04 
       1.862287663587e-02       2.464155031672e+04 
       1.875393410742e-02       2.461948128068e+04 
       1.888504847362e-02       2.459625715049e+04 
       1.901622071438e-02       2.457176242190e+04 
       1.914745183598e-02       2.454581586116e+04 
       1.927874287155e-02       2.451919279978e+04 
       1.941009488150e-02       2.449116488295e+04 
       1.954150895405e-02       2.446191301657e+04 
       1.967298620572e-02       2.443130893650e+04 
       1.980452778186e-02       2.439979420773e+04 
       1.993613485717e-02       2.436717910052e+04 
       2.006780863631e-02       2.433388938913e+04 
       2.019955035446e-02       2.429886961639e+04 
       2.033136127792e-02       2.426348607305e+04 
       2.046324270473e-02       2.422663201764e+04 
       2.059519596536e-02       2.418885432993e+04 
       2.072722242330e-02       2.414986108743e+04 
       2.085932347582e-02       2.411028609389e+04 
       2.099150055467e-02       2.406959928530e+04 
       2.112375512676e-02       2.402795705167e+04 
       2.125608869500e-02       2.398538099483e+04 
       2.138850279902e-02       2.394183407462e+04 
       2.152099901600e-02       2.389714873932e+04 
       2.165357896151e-02       2.385189297941e+04 
       2.178624429037e-02       2.380604779645e+04 
       2.191899669751e-02       2.375881233412e+04 
       2.205183791892e-02       2.371098350792e+04 
       2.218476973257e-02       2.366266153484e+04 
       2.231779395941e-02       2.361299184767e+04 
       2.245091246432e-02       2.356283762872e+04 
       2.258412715722e-02       2.351185958029e+04 
       2.271743999406e-02       2.346016097432e+04 
       2.285085297797e-02       2.340779412923e+04 
       2.298436816039e-02       2.335461612325e+04 
       2.311798764221e-02       2.330107486297e+04 
       2.325171357501e-02       2.324632298887e+04 
       2.338554816229e-02       2.319104724229e+04 
       2.351949366077e-02       2.313517491658e+04 
       2.365355238169e-02       2.307886128056e+04 
       2.378772669217e-02       2.302146203223e+04 
       2.392201901668e-02       2.296397054783e+04 
       2.405643183841e-02       2.290555242975e+04 
       2.419096770083e-02       2.284644659247e+04 
       2.432562920925e-02       2.278703148039e+04 
       2.446041903236e-02       2.272685783510e+04 
       2.459533990391e-02       2.266623427847e+04 
       2.473039462446e-02       2.260496909565e+04 
       2.486558606306e-02       2.254333967709e+04 
       2.500091715913e-02       2.248107426887e+04 
       2.513639092430e-02       2.241830824785e+04 
       2.527201044439e-02       2.235508963634e+04 
       2.540777888136e-02       2.229141018991e+04 
       2.554369947545e-02       2.222726497257e+04 
       2.567977554724e-02       2.216262468741e+04 
       2.581601049995e-02       2.209757074816e+04 
       2.595240782166e-02       2.203212637720e+04 
       2.608897108772e-02       2.196619951327e+04 
       2.622570396318e-02       2.189990484613e+04 
       2.636261020531e-02       2.183321767279e+04 
       2.649969366625e-02       2.176610139831e+04 
       2.663695829573e-02       2.169868153724e+04 
       2.677440814383e-02       2.163092167488e+04 
       2.691204736395e-02       2.156276737883e+04 
       2.704988021575e-02       2.149428197659e+04 
       2.718791106836e-02       2.142550220659e+04 
       2.732614440355e-02       2.135637913934e+04 
       2.746458481908e-02       2.128690858009e+04 
       2.760323703222e-02       2.121723231468e+04 
       2.774210588332e-02       2.114726408556e+04 
       2.788119633954e-02       2.107698118872e+04 
       2.802051349878e-02       2.100642588961e+04 
       2.816006259361e-02       2.093560724943e+04 
       2.829984899556e-02       2.086451406106e+04 
       2.843987821935e-02       2.079324802900e+04 
       2.858015592749e-02       2.072173112524e+04 
       2.872068793487e-02       2.064999574857e+04 
       2.886148021371e-02       2.057807583130e+04 
       2.900253889853e-02       2.050588041753e+04 
       2.914387029149e-02       2.043357021997e+04 
       2.928548086777e-02       2.036100659877e+04 
       2.942737728135e-02       2.028828721425e+04 
       2.956956637085e-02       2.021542340852e+04 
       2.971205516574e-02       2.014237427924e+04 
       2.985485089277e-02       2.006916500673e+04 
       2.999796098261e-02       1.999583765921e+04 
       3.014139307685e-02       1.992236992982e+04 
       3.028515503528e-02       1.984873407064e+04 
       3.042925494342e-02       1.977501451098e+04 
       3.057370112048e-02       1.970113169779e+04 
       3.071850212758e-02       1.962719302962e+04 
       3.086366677636e-02       1.955311533892e+04 
       3.100920413800e-02       1.947891847023e+04 
       3.115512355259e-02       1.940468509539e+04 
       3.130143463896e-02       1.933028925434e+04 
       3.144814730497e-02       1.925590196682e+04 
       3.159527175823e-02       1.918148834883e+04 
       3.174281851736e-02       1.910680150976e+04 
       3.189079842374e-02       1.903215342800e+04 
       3.203922265388e-02       1.895747257253e+04 
       3.218810273226e-02       1.888276566773e+04 
       3.233745054496e-02       1.880800050244e+04 
       3.248727835379e-02       1.873313392961e+04 
       3.263759881120e-02       1.865830802089e+04 
       3.278842497596e-02       1.858339882811e+04 
       3.293977032950e-02       1.850845649401e+04 
       3.309164879327e-02       1.843351458444e+04 
       3.324407474676e-02       1.835850904722e+04 
       3.339706304666e-02       1.828361302974e+04 
       3.355062904691e-02       1.820858581725e+04 
       3.370478861978e-02       1.813363187040e+04 
       3.385955817820e-02       1.805857439641e+04 
       3.401495469918e-02       1.798362229408e+04 
       3.417099574854e-02       1.790862737957e+04 
       3.432769950699e-02       1.783363707795e+04 
       3.448508479775e-02       1.775870321984e+04 
       3.464317111557e-02       1.768372661600e+04 
       3.480197865753e-02       1.760875411860e+04 
       3.496152835556e-02       1.753378855323e+04 
       3.512184191086e-02       1.745895753356e+04 
       3.528294183035e-02       1.738401920869e+04 
       3.544485146529e-02       1.730919520268e+04 
       3.560759505223e-02       1.723431220867e+04 
       3.577119775647e-02       1.715950679917e+04 
       3.593568571817e-02       1.708474453076e+04 
       3.610108610135e-02       1.700994406855e+04 
       3.626742714605e-02       1.693521774695e+04 
       3.643473822374e-02       1.686049623355e+04 
       3.660304989638e-02       1.678590348169e+04 
       3.677239397933e-02       1.671121628511e+04 
       3.694280360849e-02       1.663662404440e+04 
       3.711431331188e-02       1.656205503889e+04 
       3.728695908621e-02       1.648749053516e+04 
       3.746077847867e-02       1.641296750118e+04 
       3.763581067449e-02       1.633853615359e+04 
       3.781209659071e-02       1.626402055603e+04 
       3.798967897671e-02       1.618963408837e+04 
       3.816860252209e-02       1.611523725728e+04 
       3.834891397256e-02       1.604082721315e+04 
       3.853066225451e-02       1.596650852176e+04 
       3.871389860907e-02       1.589220212988e+04 
       3.889867673663e-02       1.581785814376e+04 
       3.908505295261e-02       1.574352189558e+04 
       3.927308635575e-02       1.566925468417e+04 
       3.946283900991e-02       1.559495623860e+04 
       3.965437614094e-02       1.552072084353e+04 
       3.984776634996e-02       1.544645261775e+04 
       4.004308184470e-02       1.537212493951e+04 
       4.024039869085e-02       1.529782238094e+04 
       4.043979708548e-02       1.522349890610e+04 
       4.064136165476e-02       1.514923405388e+04 
       4.084518177874e-02       1.507484522060e+04 
       4.105135194613e-02       1.500046808903e+04 
       4.125997214234e-02       1.492600913309e+04 
       4.147114827462e-02       1.485155575356e+04 
       4.168499263861e-02       1.477700330983e+04 
       4.190162443110e-02       1.470244579348e+04 
       4.212117031460e-02       1.462774466678e+04 
       4.234376503997e-02       1.455298730723e+04 
       4.256955213446e-02       1.447814661526e+04 
       4.279868466322e-02       1.440320676655e+04 
       4.303132607409e-02       1.432812647195e+04 
       4.326765113632e-02       1.425295939029e+04 
       4.350784698617e-02       1.417757971755e+04 
       4.375211429373e-02       1.410211704457e+04 
       4.400066856833e-02       1.402639982750e+04 
       4.425374162206e-02       1.395058918979e+04 
       4.451158321470e-02       1.387446129598e+04 
       4.477446290720e-02       1.379818063488e+04 
       4.504267215554e-02       1.372163129484e+04 
       4.531652668260e-02       1.364475195490e+04 
       4.559636917262e-02       1.356769942366e+04 
       4.588257234096e-02       1.349021096104e+04 
       4.617554244236e-02       1.341242351609e+04 
       4.647572329289e-02       1.333423777186e+04 
       4.678360089627e-02       1.325562810656e+04 
       4.709970878365e-02       1.317655151288e+04 
       4.742463419902e-02       1.309702978923e+04 
       4.775902529098e-02       1.301691732629e+04 
       4.810359950701e-02       1.293620791290e+04 
       4.845915343088e-02       1.285490998861e+04 
       4.882657435942e-02       1.277290564969e+04 
       4.920685398529e-02       1.269007345853e+04 
       4.960110464087e-02       1.260643804753e+04 
       5.001057867147e-02       1.252189103528e+04 
       5.043669164889e-02       1.243624775439e+04 
       5.088105031949e-02       1.234952078332e+04 
       5.134548641344e-02       1.226151860832e+04 
       5.183209773817e-02       1.217211761922e+04 
       5.234329835472e-02       1.208109732336e+04 
       5.288188010670e-02       1.198836500088e+04 
       5.345108835377e-02       1.189355385930e+04 
       5.405471545862e-02       1.179643324769e+04 
       5.469721636810e-02       1.169663072853e+04 
       5.538385143146e-02       1.159373568534e+04 
       5.612086220034e-02       1.148723073093e+04 
       5.691568587787e-02       1.137627586508e+04 
       5.777721233678e-02       1.126038516219e+04 
       5.871608225149e-02       1.113801841934e+04 
       5.974501223548e-02       1.100760816029e+04 
       6.087910659654e-02       1.086772315124e+04 
       6.213606566075e-02       1.071512489247e+04 
